03.03.2023	15:31
Amplitude: 2.00 V
Freq  (Hz) 	 Gain (Linear)  	 Phase (deg)
100.024              0.037             87.518
112.131              0.042             87.375
125.915              0.047             86.913
141.189              0.052             86.567
158.511              0.059             86.199
177.883              0.066             85.755
199.489              0.074             85.182
223.890              0.083             84.631
251.271              0.092             83.999
281.818              0.104             83.247
316.277              0.116             82.615
354.834              0.130             81.801
398.047              0.145             80.853
446.662              0.162             79.845
501.238              0.181             78.684
562.333              0.203             77.438
630.878              0.226             76.071
707.991              0.251             74.513
794.418              0.280             72.833
891.276              0.310             70.971
1000.054              0.343             68.994
1122.057              0.379             66.789
1258.962              0.416             64.416
1412.630              0.456             61.872
1584.925              0.498             59.162
1778.267              0.540             56.303
1995.265              0.583             53.334
2238.713              0.626             50.251
2511.963              0.668             47.120
2818.368              0.708             43.944
3162.213              0.746             40.773
3548.153              0.781             37.668
3981.031              0.813             34.633
4466.809              0.841             31.718
5011.819              0.866             28.940
5623.326              0.888             26.316
6309.524              0.907             23.872
7079.542              0.923             21.587
7943.250              0.936             19.485
8912.571              0.947             17.553
9999.983              0.957             15.806
11220.202              0.964             14.177
12589.246              0.970             12.727
14125.369              0.976             11.409
15848.875              0.980             10.219
17782.860              0.983              9.149
19952.655              0.986              8.187
22387.132              0.988              7.307
25118.887              0.990              6.549
28183.870              0.991              5.848
31622.685              0.992              5.231
35481.341              0.993              4.666
39810.687              0.994              4.172
44668.280              0.995              3.725
50118.752              0.995              3.324
56234.188              0.995              2.967
63095.801              0.996              2.640
70794.486              0.996              2.364
79432.875              0.996              2.106
89125.149              0.996              1.881
100000.016              0.996              1.673
