03.03.2023	15:43
Amplitude: 2.00 V
Freq  (Hz) 	 Gain (Linear)  	 Phase (deg)
499.934              0.181             78.736
511.669              0.185             78.429
523.590              0.189             78.210
535.697              0.194             77.951
548.176              0.198             77.709
561.029              0.202             77.401
574.067              0.207             77.131
587.478              0.211             76.880
601.076              0.216             76.609
615.045              0.221             76.329
629.388              0.226             76.017
644.103              0.231             75.733
659.190              0.236             75.435
674.464              0.241             75.129
690.110              0.246             74.839
706.315              0.251             74.509
722.706              0.257             74.170
739.470              0.262             73.858
756.793              0.268             73.513
774.488              0.274             73.161
792.369              0.279             72.825
810.996              0.285             72.472
829.808              0.291             72.109
849.180              0.297             71.734
868.924              0.304             71.347
889.227              0.310             70.970
909.902              0.316             70.591
931.136              0.323             70.181
952.743              0.329             69.786
974.908              0.336             69.368
997.633              0.343             68.946
1020.916              0.350             68.529
1044.571              0.357             68.105
1068.972              0.364             67.669
1093.931              0.371             67.215
1119.450              0.379             66.756
1145.527              0.386             66.294
1172.163              0.393             65.837
1199.357              0.401             65.371
1227.297              0.409             64.883
1255.982              0.416             64.390
1285.225              0.424             63.908
1315.214              0.432             63.406
1345.761              0.440             62.895
1377.054              0.448             62.389
1409.277              0.456             61.863
1442.060              0.464             61.337
1475.587              0.472             60.801
1510.046              0.481             60.249
1545.064              0.489             59.712
1581.199              0.497             59.155
1617.894              0.506             58.604
1655.705              0.514             58.044
1694.262              0.523             57.447
1733.750              0.531             56.872
1773.983              0.540             56.303
1815.334              0.549             55.716
1857.616              0.557             55.124
1901.016              0.566             54.528
1945.160              0.574             53.926
1990.609              0.583             53.316
2036.989              0.592             52.702
2084.300              0.600             52.104
2132.915              0.609             51.487
2182.648              0.617             50.864
2233.498              0.626             50.239
2285.466              0.634             49.626
2338.737              0.643             48.997
2393.126              0.651             48.368
2448.820              0.659             47.739
2506.003              0.668             47.100
2564.304              0.676             46.469
2624.094              0.684             45.831
2685.189              0.692             45.197
2747.774              0.700             44.573
2811.663              0.708             43.935
2877.228              0.715             43.301
2944.283              0.723             42.670
3012.829              0.731             42.027
3083.050              0.738             41.401
3154.762              0.746             40.758
3228.337              0.753             40.143
3303.401              0.760             39.526
3380.328              0.767             38.894
3459.118              0.774             38.283
3539.771              0.781             37.664
3622.100              0.787             37.048
3706.478              0.794             36.441
3792.904              0.800             35.828
3881.194              0.806             35.232
3971.718              0.813             34.631
4064.105              0.818             34.044
4158.728              0.824             33.455
4255.772              0.830             32.870
4354.864              0.836             32.293
4456.192              0.841             31.724
4560.128              0.846             31.157
4666.299              0.852             30.590
4774.891              0.857             30.036
4886.277              0.861             29.483
5000.085              0.866             28.962
5116.500              0.871             28.407
5235.709              0.875             27.869
5357.526              0.880             27.353
5482.323              0.884             26.835
5610.101              0.888             26.319
5740.859              0.892             25.823
5874.410              0.896             25.319
6011.315              0.900             24.825
6151.386              0.903             24.353
6294.623              0.907             23.871
6441.213              0.910             23.404
6591.342              0.914             22.943
6744.824              0.917             22.479
6901.845              0.920             22.037
7062.778              0.923             21.586
7227.249              0.926             21.159
7395.633              0.928             20.731
7567.741              0.931             20.314
7744.133              0.934             19.889
7924.438              0.936             19.488
8109.026              0.939             19.094
8297.898              0.941             18.694
8491.240              0.943             18.313
8689.053              0.945             17.929
8891.337              0.947             17.561
9098.463              0.949             17.200
9310.432              0.951             16.840
9527.244              0.953             16.482
9749.271              0.955             16.131
9976.327              0.957             15.793
